freq,psd_x,psd_y,psd_z,psd_xyz
0.0,2.273e+02,6.546e+00,2.039e+01,2.543e+02
1.6,1.776e+02,2.005e+01,6.532e+01,2.629e+02
3.1,8.259e+01,2.698e+01,7.015e+01,1.797e+02
4.7,4.174e+02,4.547e+01,7.065e+01,5.335e+02
6.3,1.224e+03,3.824e+01,7.295e+01,1.335e+03
7.9,1.971e+03,2.438e+01,6.722e+01,2.062e+03
9.4,2.832e+03,2.639e+01,6.640e+01,2.925e+03
11.0,3.910e+03,3.731e+01,6.934e+01,4.017e+03
12.6,5.208e+03,5.088e+01,7.013e+01,5.329e+03
14.2,6.898e+03,4.383e+01,7.399e+01,7.016e+03
15.7,8.201e+03,5.336e+01,7.343e+01,8.328e+03
17.3,7.686e+03,5.949e+01,7.194e+01,7.817e+03
18.9,7.760e+03,6.905e+01,8.071e+01,7.910e+03
20.4,8.694e+03,8.648e+01,8.119e+01,8.862e+03
22.0,1.025e+04,7.561e+01,8.499e+01,1.042e+04
23.6,1.231e+04,5.638e+01,8.876e+01,1.245e+04
25.2,1.415e+04,7.474e+01,8.740e+01,1.431e+04
26.7,1.664e+04,1.329e+02,8.743e+01,1.686e+04
28.3,1.929e+04,1.654e+02,7.816e+01,1.953e+04
29.9,2.138e+04,9.284e+01,7.157e+01,2.155e+04
31.4,2.415e+04,1.025e+02,7.339e+01,2.432e+04
33.0,2.778e+04,1.467e+02,8.761e+01,2.801e+04
34.6,3.165e+04,1.740e+02,9.001e+01,3.191e+04
36.2,3.342e+04,1.457e+02,8.534e+01,3.365e+04
37.7,3.660e+04,7.901e+01,7.701e+01,3.675e+04
39.3,4.083e+04,4.497e+01,7.068e+01,4.095e+04
40.9,4.584e+04,4.064e+01,7.582e+01,4.596e+04
42.5,5.211e+04,1.090e+02,1.220e+02,5.234e+04
44.0,5.743e+04,7.557e+01,1.285e+02,5.763e+04
45.6,6.448e+04,2.999e+01,1.438e+02,6.466e+04
47.2,7.331e+04,3.344e+01,2.253e+02,7.357e+04
48.7,8.113e+04,4.012e+01,3.117e+02,8.148e+04
50.3,8.885e+04,4.447e+01,3.933e+02,8.929e+04
51.9,1.017e+05,6.190e+01,5.116e+02,1.023e+05
53.5,1.180e+05,8.820e+01,6.821e+02,1.188e+05
55.0,1.351e+05,1.403e+02,8.980e+02,1.361e+05
56.6,1.489e+05,2.875e+02,1.406e+03,1.506e+05
58.2,1.634e+05,4.315e+02,1.898e+03,1.657e+05
59.7,1.998e+05,4.143e+02,1.720e+03,2.019e+05
61.3,2.569e+05,4.204e+02,1.108e+03,2.584e+05
62.9,3.303e+05,7.735e+02,1.023e+03,3.321e+05
64.5,3.991e+05,1.644e+03,2.597e+03,4.034e+05
66.0,4.277e+05,2.723e+03,6.452e+03,4.368e+05
67.6,4.110e+05,3.359e+03,1.140e+04,4.258e+05
69.2,4.218e+05,4.016e+03,1.780e+04,4.436e+05
70.8,4.572e+05,4.441e+03,2.499e+04,4.866e+05
72.3,5.122e+05,4.505e+03,3.544e+04,5.521e+05
73.9,5.348e+05,4.309e+03,4.651e+04,5.857e+05
75.5,5.096e+05,4.528e+03,5.129e+04,5.654e+05
77.0,5.042e+05,6.797e+03,6.217e+04,5.732e+05
78.6,4.731e+05,1.055e+04,7.063e+04,5.542e+05
80.2,4.544e+05,1.190e+04,6.427e+04,5.306e+05
81.8,4.662e+05,7.548e+03,3.347e+04,5.072e+05
83.3,4.107e+05,6.041e+03,1.927e+04,4.360e+05
84.9,3.240e+05,7.744e+03,1.900e+04,3.507e+05
86.5,2.553e+05,9.210e+03,1.773e+04,2.822e+05
88.1,2.153e+05,9.141e+03,1.582e+04,2.402e+05
89.6,1.854e+05,6.642e+03,9.748e+03,2.018e+05
91.2,1.731e+05,5.735e+03,6.624e+03,1.854e+05
92.8,1.549e+05,6.506e+03,6.987e+03,1.684e+05
94.3,1.420e+05,7.540e+03,7.484e+03,1.570e+05
95.9,1.329e+05,8.234e+03,7.328e+03,1.484e+05
97.5,1.180e+05,9.295e+03,7.448e+03,1.347e+05
99.1,1.025e+05,9.677e+03,7.009e+03,1.192e+05
100.6,8.557e+04,8.640e+03,5.828e+03,1.000e+05
102.2,7.081e+04,7.567e+03,5.594e+03,8.397e+04
103.8,5.836e+04,6.282e+03,4.903e+03,6.955e+04
105.3,4.623e+04,4.807e+03,3.432e+03,5.447e+04
106.9,3.787e+04,4.198e+03,3.124e+03,4.519e+04
108.5,3.199e+04,3.954e+03,2.878e+03,3.882e+04
110.1,2.784e+04,3.706e+03,2.614e+03,3.415e+04
111.6,2.353e+04,3.256e+03,2.230e+03,2.902e+04
113.2,1.974e+04,2.892e+03,1.803e+03,2.443e+04
114.8,1.705e+04,2.504e+03,1.429e+03,2.098e+04
116.4,1.553e+04,2.087e+03,1.259e+03,1.888e+04
117.9,1.458e+04,1.757e+03,1.364e+03,1.770e+04
119.5,1.363e+04,1.441e+03,1.685e+03,1.675e+04
121.1,1.281e+04,1.167e+03,1.938e+03,1.592e+04
122.6,1.207e+04,9.308e+02,2.061e+03,1.506e+04
124.2,1.211e+04,7.251e+02,2.306e+03,1.515e+04
125.8,1.287e+04,5.333e+02,2.725e+03,1.613e+04
127.4,1.399e+04,3.895e+02,3.307e+03,1.768e+04
128.9,1.549e+04,2.802e+02,3.930e+03,1.970e+04
130.5,1.808e+04,2.611e+02,4.779e+03,2.312e+04
132.1,1.772e+04,4.157e+02,5.171e+03,2.331e+04
133.7,7.459e+03,2.609e+02,2.325e+03,1.005e+04
135.2,3.053e+03,1.248e+02,1.266e+03,4.444e+03
136.8,2.772e+03,1.139e+02,1.421e+03,4.306e+03
138.4,2.865e+03,1.131e+02,1.523e+03,4.500e+03
139.9,3.340e+03,1.004e+02,1.552e+03,4.992e+03
141.5,3.836e+03,9.470e+01,1.564e+03,5.494e+03
143.1,3.849e+03,8.330e+01,1.694e+03,5.626e+03
144.7,4.027e+03,8.055e+01,1.825e+03,5.932e+03
146.2,4.521e+03,8.560e+01,1.914e+03,6.521e+03
147.8,5.159e+03,9.850e+01,1.973e+03,7.230e+03
149.4,5.743e+03,1.107e+02,2.176e+03,8.029e+03
150.9,5.822e+03,1.010e+02,2.340e+03,8.263e+03
152.5,5.947e+03,9.435e+01,2.370e+03,8.411e+03
154.1,6.084e+03,9.954e+01,2.111e+03,8.295e+03
155.7,6.714e+03,1.064e+02,1.728e+03,8.548e+03
157.2,7.791e+03,1.918e+02,1.995e+03,9.978e+03
158.8,7.715e+03,1.929e+02,2.708e+03,1.062e+04
160.4,6.878e+03,1.716e+02,2.587e+03,9.637e+03
162.0,5.816e+03,1.701e+02,2.480e+03,8.467e+03
163.5,5.000e+03,1.513e+02,2.378e+03,7.529e+03
165.1,4.200e+03,1.578e+02,2.492e+03,6.850e+03
166.7,3.775e+03,1.854e+02,2.870e+03,6.830e+03
168.2,3.209e+03,1.838e+02,3.137e+03,6.530e+03
169.8,2.708e+03,1.949e+02,3.314e+03,6.217e+03
171.4,2.836e+03,2.419e+02,4.073e+03,7.151e+03
173.0,3.842e+03,2.782e+02,4.834e+03,8.954e+03
174.5,5.136e+03,3.803e+02,5.381e+03,1.090e+04
176.1,6.622e+03,5.265e+02,5.850e+03,1.300e+04
177.7,7.976e+03,6.490e+02,6.235e+03,1.486e+04
179.2,9.335e+03,7.345e+02,6.206e+03,1.628e+04
180.8,1.015e+04,7.973e+02,6.033e+03,1.698e+04
182.4,1.012e+04,7.861e+02,5.328e+03,1.624e+04
184.0,9.926e+03,7.404e+02,4.216e+03,1.488e+04
185.5,1.014e+04,7.382e+02,3.430e+03,1.431e+04
187.1,1.059e+04,7.416e+02,2.827e+03,1.416e+04
188.7,1.142e+04,7.352e+02,2.250e+03,1.440e+04
190.3,1.272e+04,7.625e+02,1.904e+03,1.539e+04
191.8,1.329e+04,8.040e+02,1.630e+03,1.572e+04
193.4,1.301e+04,8.168e+02,1.342e+03,1.517e+04
195.0,1.315e+04,8.503e+02,1.153e+03,1.515e+04
196.5,1.305e+04,9.514e+02,1.035e+03,1.504e+04
198.1,1.256e+04,9.947e+02,9.060e+02,1.446e+04
199.7,1.197e+04,1.011e+03,8.068e+02,1.379e+04
